,Gfit,NRfit,NRres,NTRfit,NTRres,NTfit,NTres,Nfit,Nres,Tfit,Tres,delta_t,g(t),std_err,std_err_fit
7,1.13958272125,1.14110720849,-0.601494338566,1.14524339203,-0.0686744865569,1.14488645741,-0.114654481846,1.14075913857,-0.646331963084,1.13958272165,-0.797876783308,1e-07,1.1457765,0.036758551,0.00776282424329
8,1.13956160051,1.14108417655,-1.08534535448,1.14520099594,-0.522721801085,1.14484837317,-0.570912819489,1.14073661811,-1.13284380428,1.13956160091,-1.29342680178,1.13e-07,1.14902585,0.022619031,0.00731718870297
9,1.13954211004,1.14106292477,-0.91968458294,1.14516191143,-0.331408539672,1.1448132657,-0.381445239563,1.14071583668,-0.969497245353,1.13954211044,-1.13794712247,1.25e-07,1.1474711,0.034037181,0.00696780043025
10,1.13952100144,1.14103990882,-0.523033423371,1.14511943317,0.0912732213817,1.14477528363,0.0394502244513,1.14069333068,-0.575221626125,1.13952100184,-0.751754003759,1.38e-07,1.1445133,0.02805442,0.00664086526688
11,1.13950152218,1.14101867319,-0.038872041382,1.14508070817,0.598128313146,1.14474027024,0.544741547774,1.14067256259,-0.0931478646115,1.13950152257,-0.276787738041,1.5e-07,1.14126655,0.028251048,0.00637682264881
12,1.13948042571,1.14099567364,0.620970633763,1.14503860088,1.28118410237,1.14470238985,1.22628059883,1.14065007104,0.564534022178,1.1394804261,0.373530343922,1.63e-07,1.13719305,0.029649821,0.00612367174146
13,1.13946095764,1.14097445295,-1.69974213394,1.14499980357,-1.01920727842,1.1446674701,-1.07539227894,1.14062931627,-1.75809111597,1.13946095803,-1.9556160465,1.75e-07,1.1510284,0.032134404,0.00591498565345
14,1.13943987329,1.14095147089,-0.299108876779,1.14495785055,0.402361575521,1.1446296909,0.344904687975,1.14060683915,-0.359449256428,1.13943987368,-0.563770967469,1.88e-07,1.1426598,0.030787549,0.00571140657228
15,1.13942041641,1.14093026395,-0.408801755933,1.14491919458,0.31108649578,1.14459486433,0.252554181415,1.1405860977,-0.470913308193,1.1394204168,-0.681285104266,2e-07,1.14319545,0.031711011,0.00554104599011
16,1.13937989847,1.14088610618,-2.33362015483,1.14483888022,-1.57785351269,1.14452245202,-1.63835423457,1.14054290685,-2.39923885801,1.13937989885,-2.62160448728,2.25e-07,1.1530913,0.016468011,0.00523015585027
17,1.13933940378,1.14084197881,-1.6157368442,1.14475886036,-0.827048079011,1.14445023221,-0.889192248304,1.14049974369,-1.68464732632,1.13933940416,-1.91828857961,2.5e-07,1.14886625,0.029200296,0.00496632510529
18,1.13929893235,1.14079788307,-0.901057757383,1.14467912957,-0.0820093917016,1.14437820401,-0.145512800061,1.14045660819,-0.973075274525,1.13929893272,-1.21737578552,2.75e-07,1.14506775,0.017386851,0.00473873083506
19,1.13925848414,1.14075381754,1.175684937,1.14459968774,2.02284049656,1.14430636648,1.95822871341,1.14041350033,1.1007217655,1.13925848451,0.846299160948,3e-07,1.1354165,0.017863439,0.00453974881362
20,1.13921805913,1.14070978336,-0.0786625386255,1.14452053216,0.794595893576,1.14423471871,0.729099899709,1.14037042007,-0.156429048804,1.1392180595,-0.420499651742,3.25e-07,1.14105305,0.022537326,0.0043638309584
21,1.13917765732,1.14066577815,0.514478829458,1.14444166153,1.41203986243,1.14416325981,1.34586135442,1.1403273674,0.434036420838,1.13917765767,0.160740698017,3.5e-07,1.13850145,0.015559821,0.00420682991436
22,1.13913727866,1.14062180383,-0.648210844178,1.14436307389,0.272021563326,1.14409198885,0.205343398088,1.14028434228,-0.73121469882,1.13913727902,-1.01335494787,3.75e-07,1.14325715,0.02243585,0.00406557434914
23,1.13909692315,1.1405778604,-2.8353098099,1.14428476863,-1.89389394632,1.14402090495,-1.96090538069,1.14024134468,-2.92077131306,1.1390969235,-3.21141090182,4e-07,1.15174215,0.021158479,0.00393759185084
24,1.13901628149,1.14049006397,-2.60326265158,1.14412898898,-1.62347298025,1.14387929475,-1.69070371944,1.14015543195,-2.69336222477,1.13901628183,-3.00008068199,4.5e-07,1.15015855,0.011445054,0.00371398913868
25,1.13893573217,1.14040238727,-2.04207218533,1.14397431404,-1.028591386,1.1437384221,-1.0955221346,1.14006962899,-2.13648638512,1.13893573251,-2.45821195779,5e-07,1.1475995,0.015146672,0.00352441796917
26,1.13885527504,1.14031483103,-3.68518639956,1.14382072586,-2.64208415109,1.14359828,-2.70826798855,1.13998393559,-3.78363607183,1.13885527537,-4.11944358404,5.5e-07,1.15270085,0.021391811,0.00336103001698
27,1.13877490994,1.14022739395,-1.86531974694,1.14366821256,-0.796177228768,1.14345886148,-0.861227425722,1.13989835152,-1.96755983437,1.13877491025,-2.31663855854,6e-07,1.14623055,0.013360422,0.00321830033785
28,1.1386946367,1.14014007612,-0.865635261408,1.14351675861,0.226361843964,1.1433201597,0.162783095268,1.13981287657,-0.971448362979,1.13869463701,-1.33307906311,6.5e-07,1.1428168,0.015523221,0.00309221112019
29,1.13861445517,1.14005287558,-0.0729848872272,1.14336635141,1.03901004452,1.14318216784,0.977198514285,1.13972751052,-0.182175521904,1.13861445547,-0.555713543841,7e-07,1.14027035,0.015329064,0.00297976080888
30,1.1385343652,1.13996579539,-2.24224728351,1.1432169766,-1.11283663612,1.14304487917,-1.17262059435,1.13964225315,-2.35463973874,1.13853436549,-2.73950223463,7.5e-07,1.14642045,0.01195139,0.00287865558952
31,1.13845436663,1.13987883165,-2.0507174497,1.14306862249,-0.906235903216,1.14290828705,-0.963763430372,1.13955710426,-2.16615047888,1.13845436691,-2.56180654536,8e-07,1.1455944,0.014579363,0.00278710818998
32,1.13829464305,1.13970525619,-1.15013396535,1.14277492042,0.0182394196703,1.14263716616,-0.0341924591274,1.13938713102,-1.27121727788,1.13829464332,-1.68703834031,9e-07,1.142727,0.010526795,0.00262729986405
33,1.1381352832,1.13953214718,-1.07600364961,1.14248514334,0.109007995785,1.14236875329,0.0623017317604,1.13921758908,-1.20223175689,1.13813528344,-1.63655071853,1e-06,1.1422135,0.00916113,0.00249195789312
34,1.13797628582,1.13935950256,-0.73313326603,1.14219919594,0.462316284177,1.14210299768,0.421818935321,1.13904847675,-0.864067043543,1.13797628605,-1.31543524444,1.1e-06,1.141101,0.008042373,0.00237542128572
35,1.13781764968,1.13918731825,1.39484257271,1.14191697524,2.59537461888,1.1418398496,2.56145397987,1.13887979233,1.25959082886,1.1378176499,0.792450304621,1.2e-06,1.13601585,0.007501117,0.00227370846479
36,1.13765937356,1.13901559488,-0.8273667062,1.14163839557,0.373591151667,1.14157926037,0.346513682143,1.13871153413,-0.966592048654,1.13765937376,-1.44836621346,1.3e-06,1.1408225,0.01209628,0.00218392637518
37,1.13750145623,1.1388443272,-0.555999361605,1.14136335649,0.641307388053,1.14132118234,0.621261834443,1.13854370048,-0.698887191079,1.13750145642,-1.19426975568,1.4e-06,1.1400141,0.007450465,0.00210391539406
38,1.13734389648,1.13867351622,-0.10220662431,1.14109177915,1.08786935155,1.14106556883,1.07497074191,1.13837628971,-0.248476255899,1.13734389664,-0.756536611292,1.5e-06,1.1388812,0.010455497,0.00203202631213
39,1.13718669308,1.13850315334,0.448201239355,1.14082357276,1.62789195678,1.14081237416,1.62219864692,1.13820930016,0.298809169952,1.13718669323,-0.221078417333,1.6e-06,1.13762155,0.007920181,0.0019669749872
40,1.13687335054,1.13816377601,-1.44556273457,1.14029694677,-0.294684597387,1.1403130633,-0.285989493932,1.13787657815,-1.60050872721,1.13687335066,-2.14176400967,1.8e-06,1.14084315,0.007758961,0.00185351807097
41,1.13656141903,1.13782618867,-1.93041181522,1.13978283579,-0.817118971106,1.13982290292,-0.794321611062,1.13754552136,-2.09010412555,1.13656141911,-2.6500371473,2e-06,1.14121895,0.009030425,0.00175753379826
42,1.13625088902,1.13749036133,-0.523050390459,1.13928063562,0.54579382178,1.13934156047,0.582167620192,1.13721611683,-0.686780363552,1.13625088907,-1.26304712227,2.2e-06,1.13836645,0.008319083,0.00167496513737
43,1.13594175111,1.13715628793,-1.37153294841,1.13878977378,-0.352488952182,1.13886871709,-0.303240538497,1.13688835177,-1.53868213297,1.13594175113,-2.12921385587,2.4e-06,1.1393548,0.007025839,0.00160296150591
44,1.13563399595,1.13682394836,-2.3883500874,1.13830970652,-1.42322805532,1.13840406705,-1.3619332364,1.13656221349,-2.55836658028,1.13563399594,-3.16131854565,2.6e-06,1.1405007,0.005991987,0.00153945354674
45,1.13532761429,1.136493354,-1.7196385551,1.13783991758,-0.811574742688,1.13794731717,-0.739149262194,1.13623768946,-1.89204575884,1.13532761425,-2.50575912184,2.8e-06,1.1390434,0.007277662,0.00148289782325
46,1.13502259695,1.13616441003,-0.871955680132,1.1373799325,-0.0231946868844,1.1374981863,0.0593780577806,1.13591476727,-1.04627146096,1.13502259688,-1.66924405021,3e-06,1.13741315,0.007299606,0.00143211660413
47,1.13471893485,1.13583718258,-1.2707962931,1.13692927922,-0.482956216379,1.13705640483,-0.391247799935,1.13559343463,-1.44663449012,1.13471893475,-2.07749798298,3.2e-06,1.13759875,0.006862776,0.00138619352786
48,1.13411564039,1.13518773299,0.683666694357,1.13605426855,1.34708833811,1.13619386633,1.45396447468,1.13495548956,0.50586256379,1.13411564023,-0.137125782848,3.6e-06,1.13429475,0.005773487,0.00130616418801
49,1.13351765979,1.134544888,0.13571451796,1.13521167715,0.674088790522,1.13535775725,0.792035430917,1.13432375857,-0.0428262186927,1.13351765957,-0.693678439819,4e-06,1.1343768,0.003289362,0.00123852698079
50,1.13292492315,1.13390851225,0.458711428972,1.13439862719,0.873925745488,1.1345462886,0.999020703528,1.13369814794,0.280497689757,1.13292492288,-0.374557957313,4.4e-06,1.13336705,0.004969064,0.0011803945514
51,1.13233736182,1.13327851395,-0.219198795273,1.13361254167,0.076470386634,1.13375781396,0.205059484438,1.13307856589,-0.396183194161,1.13233736149,-1.05226627039,4.8e-06,1.13352615,0.004596748,0.00112974026463
52,1.13175490832,1.13265478173,-0.162170060367,1.13285109439,0.0187489566396,1.1329908178,0.147515111554,1.13246492251,-0.33713890362,1.13175490794,-0.991472505302,5.2e-06,1.13283075,0.006010464,0.0010850942773
53,1.13117749635,1.13203722564,0.350619675872,1.13211223606,0.422376534103,1.13224390472,0.54833171916,1.13185712969,0.178339969512,1.13117749592,-0.471801667386,5.6e-06,1.1316707,0.004529734,0.00104536123642
54,1.13060506076,1.13142573925,-1.53813450405,1.13139407051,-1.56949599646,1.13151578956,-1.44894699201,1.13125510114,-1.707129498,1.13060506027,-2.35092084695,6e-06,1.1329788,0.004940767,0.00100970597775
55,1.1300375375,1.13082022995,0.677179410156,1.13069494481,0.54900896107,1.13080528837,0.661894801436,1.13065875228,0.511982559674,1.13003753696,-0.123544483601,6.4e-06,1.1301583,0.005119126,0.000977479150725
56,1.12891697726,1.1296267661,0.0142345573105,1.12934791481,-0.288416790624,1.1294328491,-0.1962330087,1.1294827637,-0.142057987293,1.12891697662,-0.756136407307,7.2e-06,1.12961365,0.003456221,0.000921358257995
57,1.12781532476,1.12845613495,0.240894545418,1.1280608434,-0.211399690861,1.12811884115,-0.145038297032,1.12832852035,0.0948779994671,1.12781532403,-0.492323577434,8e-06,1.1282456,0.003693278,0.000873968166464
58,1.12673210558,1.12730761323,-0.294607860636,1.12682538561,-0.873325581996,1.12685667397,-0.835776604284,1.12719540366,-0.429269182496,1.12673210476,-0.985270380971,8.8e-06,1.1275531,0.003967052,0.000833268152174
59,1.12566686102,1.12618056399,0.708378422432,1.12563476714,0.0242748484502,1.12564073154,0.0317506547568,1.12608281887,0.58586476863,1.1256668601,0.0645012979335,9.6e-06,1.1256154,0.00397804,0.000797827243025
60,1.12461914746,1.12507436029,0.449068926825,1.12448347606,-0.321707802749,1.12446622021,-0.344217141264,1.12499019388,0.339278622232,1.12461914646,-0.144731981968,1.04e-05,1.1247301,0.003788585,0.000766608523429
61,1.12358853578,1.12398838762,0.807397640219,1.12336701368,-0.0336152968039,1.12332904074,-0.0850106473429,1.12391697816,0.710746904692,1.12358853471,0.266208495695,1.12e-05,1.12339185,0.003077843,0.000738839880573
62,1.12257461076,1.12292206669,0.593006313116,1.12228168803,-0.303966845081,1.12222568054,-0.382416066108,1.1228626417,0.509770086918,1.12257460961,0.106326962985,1.2e-05,1.1224987,0.003773612,0.000713933034267
63,1.12157697048,1.12187484464,1.27163092969,1.12122446421,0.331000845962,1.12115312284,0.227821518986,1.12182667411,1.20196265197,1.12157696926,0.840821506042,1.28e-05,1.1209956,0.00305122,0.000691430892171
64,1.1196290001,1.11983556877,1.06293741767,1.11918469024,0.0650657261948,1.11909038059,-0.0795217055364,1.11980789629,1.02051153692,1.11962899874,0.746242247494,1.44e-05,1.11914225,0.002332361,0.000652267289053
65,1.11774165657,1.11786652193,1.24733415899,1.11723219557,0.222935057278,1.11712397814,0.0481705973246,1.11785691955,1.2318256172,1.11774165509,1.04568166947,1.6e-05,1.11709415,0.002749406,0.000619218772338
66,1.11591215371,1.11596397064,-1.15363596626,1.11535599504,-2.18261858197,1.11524121646,-2.37687795582,1.11597027863,-1.1429616065,1.11591215211,-1.24133804163,1.76e-05,1.1166456,0.002651913,0.000590852187284
67,1.11413787345,1.11412443746,2.81171214143,1.11354806925,1.79368558023,1.11343237831,1.58934364832,1.11414474561,2.84757972565,1.11413787175,2.83543958225,1.92e-05,1.11253255,0.0026841,0.000566163468636
68,1.11241635341,1.11234472067,2.04852978601,1.11180234212,1.0522872424,1.11168990573,0.845764277366,1.11237730954,2.10838639174,1.11241635161,2.18009977088,2.08e-05,1.11122945,0.00215343,0.000544425606923
69,1.11074527544,1.11062181404,0.498603739529,1.11011408097,-0.468330117168,1.11000781345,-0.670706810838,1.11066515825,0.581145744823,1.11074527355,0.733718907685,2.24e-05,1.11036,0.002037428,0.000525097624601
70,1.10912245524,1.10895291921,0.860474264323,1.10847942604,-0.0720289274213,1.10838126974,-0.265338428545,1.10900566197,0.964342683067,1.10912245328,1.19435299188,2.4e-05,1.108516,0.002968519,0.000507767600227
71,1.10754583284,1.1073354122,1.76516248266,1.10689515664,0.87054058104,1.10680629624,0.689972448733,1.10739635854,1.88900422417,1.1075458308,2.19273914575,2.56e-05,1.10646675,0.002396667,0.000492115650909
72,1.1045235115,1.10424511455,-0.463626788683,1.10386698572,-1.27701207594,1.10379817961,-1.42501869459,1.10431924089,-0.304180564411,1.10452350934,0.135215563863,2.88e-05,1.10446065,0.001637099,0.000464885405947
73,1.10166400417,1.10133315146,0.721409773333,1.10101085773,-0.00790253782134,1.1009618825,-0.118726857203,1.10141698386,0.911105936947,1.10166400191,1.47007515588,3.2e-05,1.10101435,0.002087495,0.000441917724578
74,1.09895450409,1.09858399898,0.00331926732798,1.09831134209,-0.642469117335,1.09828061148,-0.715253983269,1.09867471416,0.2181706098,1.09895450175,0.880842890109,3.52e-05,1.0985826,0.002075039,0.000422211589739
75,1.09638351335,1.09598389096,0.315485238424,1.09575520474,-0.249083387853,1.09574061027,-0.285113230716,1.09607922887,0.550845460746,1.09638351095,1.30203720559,3.84e-05,1.0958561,0.00278513,0.000405066181727
76,1.0939406798,1.09352062298,-0.819988147237,1.09333086804,-1.30657806703,1.09333019522,-1.30830335197,1.09361876433,-0.56833394827,1.09394067735,0.257138984276,4.16e-05,1.0938404,0.00197792,0.000389974369867
77,1.09161665784,1.09118332457,0.617903943629,1.09102804224,0.205524883511,1.09103919997,0.235155635911,1.09128280274,0.882073594613,1.09161665536,1.76866202123,4.48e-05,1.09095065,0.00218184,0.000376558993468
78,1.08940298896,1.08896226483,0.255855036141,1.08883753953,-0.0863034994228,1.08885863703,-0.028428063427,1.08906190947,0.529196162312,1.08940298646,1.46485136217,4.8e-05,1.088869,0.002014327,0.000364533004053
79,1.08729199896,1.08684873558,0.29331666177,1.08675111601,0.0172928178455,1.08678047752,0.100311483687,1.08694759534,0.572831417593,1.08729199644,1.54661431398,5.12e-05,1.086745,0.001758163,0.000353673585051
80,1.08335075891,1.08291348605,0.840205577214,1.08286142174,0.684682041972,1.08290316405,0.809365749181,1.08300879074,1.12487115369,1.08335075639,2.14631810484,5.76e-05,1.0826322,0.001543698,0.00033478566982
81,1.07974413496,1.0793235783,0.181055344086,1.07930748188,0.130565235072,1.07935724152,0.286620657831,1.07941334612,0.462575006249,1.07974413247,1.49998233164,6.4e-05,1.07926585,0.001198048,0.000318858816963
82,1.0764312695,1.07603421864,2.01074019763,1.07604667991,2.0515615575,1.07610126036,2.23039846675,1.07611740795,2.28330727778,1.07643126706,3.31169046315,7.04e-05,1.07542055,0.001605477,0.000305196747173
83,1.07337769645,1.07300833516,-0.340122738595,1.07304346024,-0.22037867261,1.07310051058,-0.0258748826906,1.07308438519,-0.0808517594028,1.07337769407,0.919137079995,7.68e-05,1.0731081,0.001366545,0.000293312230011
84,1.07055413846,1.07021483009,0.194209420661,1.07026786437,0.381698019881,1.07032567941,0.586097736519,1.07028349124,0.436945374458,1.07055413615,1.39378558919,8.32e-05,1.0701599,0.001193707,0.000282852840671
85,1.06793556591,1.06762734161,-0.314216176172,1.06769452274,-0.0686412478819,1.06775182883,0.140844100775,1.06768862619,-0.0901963681097,1.06793556369,0.812496440844,8.96e-05,1.0677133,0.001378214,0.00027355656949
86,1.06550045354,1.06522345063,0.447242070326,1.06530173073,0.742507017887,1.06535760111,0.953160527771,1.06527750955,0.651183534798,1.06550045141,1.49176296854,9.6e-05,1.0651048,0.001219459,0.000265224068707
87,1.06323018784,1.06298391143,0.524693048259,1.06307079026,0.861814927138,1.06312459317,1.07059561368,1.063031,0.707409974532,1.06323018581,1.48034492345,0.0001024,1.0628487,0.001188076,0.000257700639813
88,1.05912153446,1.05893371136,-0.43184500694,1.059032167,-0.0293642897433,1.05908050808,0.168255335697,1.05896780776,-0.292466573234,1.05912153261,0.335964795086,0.0001152,1.05903935,0.000979533,0.000244616797656
89,1.05550294787,1.05536822594,0.847773404933,1.05547265239,1.29482336832,1.05551480233,1.47527073639,1.05539073642,0.944134436849,1.05550294622,1.42451378966,0.000128,1.0551702,0.000767562,0.000233585826065
90,1.05229175857,1.05220418833,-0.643436270956,1.05231096907,-0.167009370838,1.05234658884,-0.00808101615928,1.0522165238,-0.588405416797,1.05229175711,-0.252729282121,0.0001408,1.0523484,0.000924778,0.000224124716403
91,1.04942290046,1.04937687791,-1.37344415458,1.04948323029,-0.880841178585,1.0495123853,-0.745798982607,1.04938006412,-1.35869337995,1.04942289918,-1.16028693678,0.0001536,1.0496734,0.00087993,0.000215895568731
92,1.04684446212,1.04683393418,-0.896050203556,1.04693868714,-0.394015210741,1.04696164488,-0.283987423834,1.04682968287,-0.916431516808,1.04684446103,-0.845605354074,0.0001664,1.0470209,0.000924494,0.000208654025583
93,1.04451452239,1.04453472214,-1.1654558733,1.04463647469,-0.662280381863,1.04465360276,-0.577579535746,1.04452382144,-1.21936726142,1.04451452147,-1.26535688744,0.0001792,1.0447704,0.000792401,0.000202218451804
94,1.04239885742,1.04244529953,-0.00432397118216,1.04254331033,0.494578749134,1.04255500619,0.55411461109,1.04242866211,-0.0890192538607,1.04239885666,-0.240738906429,0.000192,1.04244615,0.000926223,0.000196450671701
95,1.04046925151,1.04053795677,-1.93701948758,1.04063176521,-1.44650580088,1.04063845118,-1.41154526905,1.04051639528,-2.04976785577,1.04046925091,-2.29628265477,0.0002048,1.0409084,0.000900339,0.000191243470271
96,1.03707812278,1.03718133558,-0.297568607788,1.03726606308,0.167480247996,1.03726396692,0.155974832982,1.03715194794,-0.458875143757,1.03707812246,-0.864088364936,0.0002304,1.03723555,0.000725309,0.000182189122072
97,1.0341945843,1.03432164515,-0.716982761831,1.03439710216,-0.28470830352,1.03438777194,-0.338159139154,1.03428659263,-0.917793773181,1.03419458424,-1.44488991655,0.000256,1.0344468,0.000791045,0.000174557043973
98,1.03171281476,1.03185568795,-0.818461214451,1.0319221808,-0.422701654919,1.03190695223,-0.513341147969,1.03181661872,-1.05100032022,1.03171281492,-1.66883345308,0.0002816,1.0319932,0.000591812,0.000168012583746
99,1.0295544927,1.02970715037,-1.02389005876,1.02976516586,-0.66648008168,1.02974522141,-0.789350018659,1.0296653269,-1.28154876676,1.02955449307,-1.96435209143,0.0003072,1.02987335,0.00067813,0.000162321643699
100,1.02766040862,1.02781829152,-0.0245271414906,1.02786846869,0.294432861324,1.02784480249,0.143994542752,1.0277747385,-0.301379520777,1.02766040916,-1.02813347931,0.0003328,1.02782215,0.000697667,0.000157314939304
