,Gfit,NRfit,NRres,NTRfit,NTRres,NTfit,NTres,Nfit,Nres,Tfit,Tres,delta_t,g(t),std_err,std_err_fit
7,1.06960664112,1.07029798257,-0.796166318825,1.07205944468,-0.272361933133,1.07093131854,-0.607831778141,1.07013688169,-0.844072741231,1.06960663771,-1.00175060361,1e-07,1.07297535,0.012361074,0.0033628242822
8,1.06959627321,1.07028673071,-0.737150204446,1.07203610843,-0.189840574279,1.07091887716,-0.539377113678,1.07012586821,-0.787477583901,1.0695962698,-0.953167210111,1.13e-07,1.0726429,0.009891253,0.003196321831
9,1.06958670555,1.07027634832,-0.427237501441,1.07201463372,0.140111436288,1.07090739748,-0.221273009219,1.07011570512,-0.479668907239,1.06958670213,-0.652326798821,1.25e-07,1.07158535,0.017159911,0.00306387355536
10,1.06957634351,1.07026510446,0.780482983682,1.07199144049,1.36799612615,1.07089496622,0.994839896301,1.07010469858,0.725893051453,1.0695763401,0.546080466828,1.38e-07,1.06797175,0.01543689,0.00293837855843
11,1.06956678126,1.07025472921,-1.43147519091,1.07197009671,-0.826599358209,1.07088349588,-1.20975840798,1.07009454189,-1.48796071687,1.06956677785,-1.67406141514,1.5e-07,1.07431425,0.014017203,0.00283590020723
12,1.06955642509,1.07024349323,0.0413431595246,1.07194704481,0.663830266271,1.07087107473,0.270664887697,1.07008354229,-0.0171037955186,1.06955642168,-0.209716184133,1.63e-07,1.07013035,0.01470289,0.00273668571266
13,1.06954686825,1.07023312526,0.0735916805462,1.07192583075,0.711343500594,1.07085961372,0.309630468161,1.070073392,0.0134098127501,1.06954686484,-0.184966688715,1.75e-07,1.0700378,0.014073106,0.00265417586688
14,1.06953651794,1.07022189699,-0.355319335612,1.07190291854,0.298000315602,1.07084720266,-0.112297771279,1.07006239932,-0.417307213959,1.06953651453,-0.621689001925,1.88e-07,1.07113615,0.008564234,0.00257304605052
15,1.06952696651,1.07021153619,-2.26354439332,1.07188183289,-1.59666932296,1.07083575096,-2.01432324057,1.07005225543,-2.3271381072,1.0695269631,-2.53686351912,2e-07,1.07588095,0.013997312,0.00250466208049
16,1.06950707603,1.07018996205,0.940479912028,1.07183810021,1.63335572713,1.07081190759,1.20194526329,1.07003113216,0.873707967213,1.06950707263,0.653394242218,2.25e-07,1.06795285,0.006962934,0.00237869200691
17,1.06948719679,1.07016840275,-0.129965887863,1.07179462994,0.586252450565,1.07078808358,0.142952173944,1.07001002218,-0.199719407706,1.0694871934,-0.429981714435,2.5e-07,1.0704635,0.011339648,0.00227057461995
18,1.0694673288,1.07014685803,-0.118656025732,1.0717514192,0.618601557489,1.0707642789,0.165034136351,1.06998892549,-0.191222262485,1.06946732541,-0.430884580385,2.75e-07,1.0704051,0.009123475,0.00217639154294
19,1.06944747204,1.07012532813,-0.790325848071,1.07170846539,-0.0340530251764,1.07074049353,-0.496458170815,1.06996784206,-0.865557759394,1.06944746865,-1.11414232121,3e-07,1.07177975,0.008291746,0.00209334146139
20,1.0694276265,1.07010381278,-1.31481658518,1.0716657656,-0.541327314575,1.07071672744,-1.01129723083,1.06994677188,-1.39258426809,1.06942762311,-1.64966962512,3.25e-07,1.0727589,0.010011762,0.00201935939239
21,1.06940779218,1.07008231208,-2.49714682169,1.07162331735,-1.70805473151,1.07069298061,-2.18444594082,1.06992571494,-2.57733445273,1.06940778879,-2.84254484715,3.5e-07,1.07495895,0.011576163,0.0019528839387
22,1.06938796905,1.07006082599,-0.468019159351,1.07158111765,0.335216712702,1.07066925301,-0.146560834598,1.06990467123,-0.550522472001,1.06938796567,-0.823519837128,3.75e-07,1.07094665,0.008800889,0.00189270886962
23,1.06936815712,1.07003935431,-1.05218532508,1.07153916461,-0.236133040352,1.07064554462,-0.722354955379,1.06988364074,-1.1369096473,1.06936815374,-1.41738745369,4e-07,1.07197315,0.01323907,0.00183788506349
24,1.06932856679,1.06999645482,-0.817041082738,1.07145598613,0.021095749129,1.07059818536,-0.471496921421,1.06984161935,-0.90595545925,1.06932856342,-1.2005775769,4.5e-07,1.07141925,0.008199588,0.00174139979853
25,1.06928902112,1.0699536125,0.516828723128,1.07137376175,1.3729122581,1.07055090262,0.876882597896,1.06979965065,0.424018616514,1.06928901775,0.116203409351,5e-07,1.06909625,0.005538718,0.00165889097136
26,1.06924952004,1.06991082762,-0.260968818492,1.07129247163,0.60949599912,1.07050369622,0.112550882441,1.06975773456,-0.357420670036,1.06924951667,-0.677607992104,5.5e-07,1.07032505,0.006154379,0.00158724853737
27,1.06921006346,1.06986810011,-0.0043299047424,1.07121209622,0.877408142933,1.07045656595,0.381737227338,1.06971587097,-0.104200894225,1.0692100601,-0.436040976536,6e-07,1.0698747,0.004651434,0.00152425782116
28,1.06917065131,1.06982542969,0.208289414327,1.07113261673,1.09856669261,1.07040951162,0.606086253404,1.06967405978,0.10519690334,1.06917064796,-0.237657770532,6.5e-07,1.0695196,0.006465943,0.00146829203662
29,1.06913128352,1.06978281585,-0.205048312903,1.07105401457,0.69134564393,1.07036253302,0.203742978815,1.06963230087,-0.31118491885,1.06913128017,-0.66448216318,7e-07,1.0700736,0.009400004,0.00141812504658
30,1.06909196001,1.06974025834,-2.38968683146,1.07097627146,-1.48933573807,1.07031562996,-1.9705679223,1.06959059416,-2.4987069557,1.06909195667,-2.8619295437,7.5e-07,1.07302085,0.006906558,0.00137281237842
31,1.06905268071,1.06969775793,-1.22054398256,1.07089936991,-0.318170619917,1.07026880225,-0.791707393681,1.06954893954,-1.33230198448,1.06905267737,-1.70497872541,8e-07,1.07132305,0.006571436,0.00133161286307
32,1.06897425442,1.06961292521,-0.597017045621,1.07074802183,0.304352578211,1.07017537208,-0.150383239376,1.06946578616,-0.713858790498,1.0689742511,-1.10418138159,9e-07,1.07036475,0.003776926,0.00125930204836
33,1.06889600407,1.06952831577,-2.07167790243,1.07059983534,-1.1770069636,1.07008224095,-1.6091751393,1.06938283993,-2.19314371877,1.06889600076,-2.59963180537,1e-06,1.0720095,0.005976914,0.00119766891867
34,1.06881792907,1.0694439288,0.0102933838509,1.07045468386,0.893582702428,1.06998940732,0.486981924551,1.06930010005,-0.115397207155,1.06881792577,-0.536763872122,1.1e-06,1.06943215,0.00331598,0.00114430802486
35,1.06874002883,1.06935976313,-1.91039885008,1.07031244126,-1.04236498943,1.06989686966,-1.42101356477,1.06921756571,-2.03996220768,1.06874002553,-2.47507260378,1.2e-06,1.07145645,0.00586406,0.00109751263019
36,1.06866230275,1.06927581733,-2.22647628783,1.07017299414,-1.3769036681,1.06980462645,-1.72572577452,1.06913523613,-2.35959825472,1.06866229947,-2.80743993045,1.3e-06,1.07162705,0.003799166,0.00105603310618
37,1.06858475026,1.06919209039,-2.21370345817,1.07003622666,-1.38525009219,1.06971267617,-1.70278945995,1.0690531105,-2.35010129521,1.06858474699,-2.80976225055,1.4e-06,1.0714477,0.006702265,0.00101893033467
38,1.06850737078,1.06910858155,-2.48118822667,1.06990203256,-1.67604889432,1.06962101731,-1.96120377853,1.06897118805,-2.62060567219,1.06850736752,-3.0912577133,1.5e-06,1.07155375,0.005061027,0.000985482850988
39,1.06843016372,1.06902528973,-0.741693101789,1.06977030817,0.0383281122137,1.06952964839,-0.213638453642,1.06888946799,-0.883896073863,1.06843016047,-1.36478191248,1.6e-06,1.0697337,0.0052116,0.00095512586943
40,1.06827626459,1.06885935113,-1.38407636577,1.06951388063,-0.658411811827,1.06934777442,-0.84257064924,1.06872663195,-1.53121963073,1.06827626136,-2.03053591241,1.8e-06,1.07010775,0.003866161,0.000901972532672
41,1.0681230483,1.06869426609,-0.8838529489,1.06926620292,-0.216325154096,1.06916704251,-0.332058799889,1.0685645962,-1.03519527982,1.06812304509,-1.55054407091,2e-06,1.06945155,0.003003151,0.000856798536642
42,1.06797051032,1.0685300318,-0.828783561823,1.06902660149,-0.221571838401,1.06898744105,-0.269457718836,1.06840335463,-0.983686013078,1.06797050713,-1.51297618878,2.2e-06,1.0692078,0.003718412,0.000817786735552
43,1.06781864614,1.06836663535,-0.0696924729514,1.06879445261,0.476235124551,1.0688089586,0.494745879658,1.06824290119,-0.227586746764,1.06781864297,-0.768971437655,2.4e-06,1.06842125,0.003395967,0.000783652013471
44,1.06766745132,1.06820406784,0.343573854462,1.06856918951,0.828169615689,1.06863158386,0.910980475285,1.0680832299,0.18319565706,1.06766744818,-0.368635662227,2.6e-06,1.0679452,0.003217252,0.000753456174865
45,1.06751692144,1.0680423319,-0.736711698572,1.06835029158,-0.312814417721,1.06845530568,-0.168265655115,1.06792433484,-0.899131126706,1.06751691832,-1.45992639334,2.8e-06,1.06857755,0.004078374,0.000726495992994
46,1.06736705213,1.06788140937,-0.266280219475,1.06813728152,0.0980893294592,1.06828011303,0.301485657495,1.06776621015,-0.43032734736,1.06736704903,-0.998743238895,3e-06,1.0680684,0.002702277,0.000702232506484
47,1.06721783905,1.06772130049,2.99642237928,1.06792972248,3.30281504061,1.06810599506,3.56194616502,1.06760885003,2.8311135428,1.06721783597,2.25630119878,3.2e-06,1.065683,0.003527974,0.000680244715412
48,1.06692136441,1.06740342208,-0.183582931257,1.0675293875,0.012678704267,1.06776094035,0.373451866042,1.06729640059,-0.350328797045,1.06692136136,-0.934660728255,3.6e-06,1.06752125,0.002287511,0.000641823950835
49,1.06662746356,1.06708883584,-0.374745717218,1.06714646374,-0.280157583873,1.06742005738,0.168908053186,1.0669869413,-0.541991331293,1.06662746056,-1.1320270028,4e-06,1.06731715,0.002697029,0.000609250882432
50,1.06633610315,1.06677729925,0.887673410379,1.0667785799,0.889876944392,1.0670832641,1.41412671345,1.06668042787,0.720993299658,1.06633610019,0.128533328111,4.4e-06,1.0662614,0.002220451,0.000581181366246
51,1.06604725039,1.0664688244,1.84917270031,1.0664237435,1.76818918048,1.06675048053,2.35514101245,1.06637681688,1.68388999121,1.06604724746,1.09185180194,4.8e-06,1.06543945,0.002563704,0.000556667529781
52,1.06576087304,1.06616336466,-0.588456209543,1.06608027315,-0.743761891274,1.06642162873,-0.105736901632,1.0660760658,-0.751625818401,1.06576087015,-1.34075364405,5.2e-06,1.0664782,0.002625906,0.00053501914473
53,1.06547693944,1.06586086995,-0.660591069469,1.06574675681,-0.881860630113,1.06609663271,-0.203438453179,1.06577813293,-0.821021185557,1.06547693658,-1.40505002469,5.6e-06,1.06620155,0.002403161,0.000515720031734
54,1.06519541843,1.06556129792,-0.201157758426,1.06542200321,-0.480655315819,1.06577541838,0.228479138282,1.06548297741,-0.358309394273,1.06519541561,-0.935305830953,6e-06,1.06566155,0.002194873,0.000498375403391
55,1.0649162794,1.06526460086,-0.582685463418,1.06510500858,-0.913325059514,1.06545791349,-0.182184819613,1.06519055919,-0.736083283711,1.06491627662,-1.3043335669,6.4e-06,1.06554585,0.002132632,0.000482677460432
56,1.06436502742,1.06467965639,0.111260995155,1.064491033,-0.30302878373,1.06483375198,0.449714385732,1.06461377832,-0.0334326830398,1.06436502471,-0.579789520792,7.2e-06,1.064629,0.001677687,0.000455293379816
57,1.06382294871,1.06410569859,1.08776410896,1.06389949699,0.610582158376,1.06422360517,1.36061792569,1.06404748524,0.953049555323,1.06382294607,0.433433870492,8e-06,1.06363565,0.001592968,0.000432123640655
58,1.06328981624,1.06354240222,0.420197899452,1.06332657286,-0.103415745368,1.06362695635,0.625330780624,1.06349138655,0.296431149424,1.06328981367,-0.192593230771,8.8e-06,1.0633692,0.001772113,0.000412192015757
59,1.0627654104,1.06298945211,-0.220606105634,1.06276948776,-0.777743379193,1.06304331365,-0.0841827608388,1.06294519995,-0.332690301896,1.06276540789,-0.788074722952,9.6e-06,1.06307655,0.001678534,0.000394811772528
60,1.06224951871,1.06244655698,1.05605786049,1.0622262174,0.47542830776,1.06247220864,1.12365401828,1.06240865372,0.956176791313,1.06224951626,0.536826920207,1.04e-05,1.0620458,0.001935612,0.0003794839259
61,1.06174193554,1.06191341965,-0.210423086858,1.06169526643,-0.806737282953,1.06191319502,-0.211037115894,1.06188148622,-0.297711991648,1.06174193315,-0.679172917462,1.12e-05,1.0619904,0.001993201,0.000365836038416
62,1.06124246182,1.06138977024,0.964609462186,1.06117551397,0.358653253886,1.06136584743,0.896951364226,1.06136344543,0.890158041613,1.0612424595,0.547990122916,1.2e-05,1.0610487,0.001629119,0.000353583757421
63,1.06075090481,1.06087534541,-0.127748500478,1.06066610407,-0.738661866793,1.06082976031,-0.260841440969,1.06085428845,-0.189227619629,1.06075090254,-0.491076622489,1.28e-05,1.0609191,0.001447788,0.00034250573635
64,1.05979079991,1.05987315881,-0.785384898185,1.05967577843,-1.39608000197,1.05978983767,-1.04318058658,1.05986169784,-0.820845154242,1.05979079775,-1.0402073508,1.44e-05,1.060127,0.001257174,0.000323206098534
65,1.05886019584,1.05890493694,-0.427540711571,1.05872036586,-1.02894165169,1.0587905389,-0.800291894699,1.05890193929,-0.437308181087,1.05886019379,-0.573327630775,1.6e-05,1.05903615,0.001070027,0.000306901896236
66,1.05795775382,1.05796890586,0.492858797116,1.05779713398,-0.0936035977287,1.0578292299,0.0159780754212,1.05797335973,0.508065178483,1.05795775186,0.454779837493,1.76e-05,1.05782455,0.001366377,0.000292894959732
67,1.05708221485,1.05706340889,-0.527586987915,1.0569039992,-1.09549736624,1.05690350453,-1.09725966751,1.05707441763,-0.488367439764,1.05708221299,-0.460592806681,1.92e-05,1.0572115,0.001152606,0.000280695149492
68,1.05623239389,1.05618691117,0.948746285146,1.05603924072,0.401711199773,1.05601116146,0.297693537614,1.0562036736,1.01084153022,1.05623239212,1.11723041933,2.08e-05,1.0559308,0.001470722,0.000269946957873
69,1.05540717449,1.05533798051,0.596540670175,1.05520138442,0.0719487957024,1.05515018357,-0.124686018858,1.05535978193,0.680268148263,1.05540717281,0.862274083965,2.24e-05,1.05518265,0.001472023,0.000260385455114
70,1.05460550391,1.05451528156,-0.501247411873,1.05438907838,-1.00243423641,1.0543187197,-1.28184753535,1.054541483,-0.397194432443,1.0546055023,-0.142953337679,2.4e-05,1.0546415,0.001378817,0.000251808654881
71,1.0538263886,1.05371756567,0.789011060302,1.05360107218,0.311695202395,1.05351506836,-0.0406935197178,1.05374759638,0.912057726731,1.05382638707,1.23489492134,2.56e-05,1.053525,0.001225168,0.000244059526543
72,1.0523321215,1.05219249227,2.02449509755,1.05209364205,1.59577810687,1.05198506054,1.12485611105,1.0522286975,2.18151849756,1.05233212011,2.63006953172,2.88e-05,1.0517257,0.000970636,0.000230572188898
73,1.05091746149,1.05075427178,0.531143369314,1.05067089968,0.150780351177,1.05054902943,-0.40522019528,1.05079500335,0.716970331589,1.05091746023,1.27565068635,3.2e-05,1.05063785,0.000746171,0.00021919087115
74,1.04957621397,1.04939542365,-0.0633950489811,1.04932565733,-0.396531883064,1.04919745994,-1.00867925244,1.04943935642,0.146385583215,1.04957621283,0.799883577716,3.52e-05,1.0494087,0.000874616,0.000209422427083
75,1.04830281079,1.04810932948,1.25038811564,1.0480515412,0.96277150495,1.04792217044,0.318883411079,1.04815539337,1.47965161631,1.04830280976,2.21335765738,3.84e-05,1.0478581,0.000941329,0.00020092119637
76,1.04709223302,1.04689009458,0.874159272968,1.04684287609,0.630056371434,1.0467160857,-0.0254051790248,1.04693743644,1.11889998181,1.04709223209,1.91914239492,4.16e-05,1.046721,0.00078484,0.000193436808546
77,1.04593994486,1.0457324819,0.682513725223,1.04569459675,0.479683864963,1.04557305335,-0.171036235395,1.04578040238,0.939070808618,1.04593994402,1.79322988902,4.48e-05,1.045605,0.000940487,0.000186782908689
78,1.04484183688,1.04463177586,1.62470860542,1.04460214827,1.46085508843,1.04448769469,0.827876895033,1.04467972563,1.88989175937,1.04484183611,2.78643705244,4.8e-05,1.044338,0.000928099,0.00018081756927
79,1.04379417704,1.04358376009,-0.0330040155647,1.04356145386,-0.160155347427,1.043455283,-0.765356961973,1.0436312933,0.23794768686,1.04379417635,1.1664273414,5.12e-05,1.04358955,0.000993618,0.000175430557124
80,1.04183691226,1.04163092939,-1.65554534296,1.04162086918,-1.71612695425,1.041533073,-2.24482710678,1.04167664885,-1.38022717704,1.0418369117,-0.415136098696,5.76e-05,1.04190585,0.00070408,0.000166060451286
81,1.04004436603,1.03984766933,1.20239104938,1.03984726836,1.19985583289,1.03977827395,0.763622146152,1.03989070273,1.47448001595,1.04004436558,2.44605382113,6.4e-05,1.0396575,0.00063612,0.00015815930254
82,1.03839659369,1.03821228715,0.421035054969,1.03821950023,0.468683269992,1.03816834561,0.130765933589,1.0382521109,0.684102897579,1.03839659334,1.63852919967,7.04e-05,1.03814855,0.000653402,0.000151382044441
83,1.03687674557,1.03670668394,0.906155654679,1.03671990832,0.997052927321,1.03668494829,0.756756470841,1.03674303253,1.1559963103,1.0368767453,2.07506968995,7.68e-05,1.03657485,0.000461147,0.000145487085161
84,1.03547048907,1.03531565973,0.48118258799,1.03533360949,0.609121423723,1.03531294666,0.461844924456,1.03534843274,0.714775667653,1.03547048886,1.58474700914,8.32e-05,1.03524815,0.000791987,0.000140299604416
85,1.03416555553,1.03402634717,1.21856929287,1.03404799024,1.3780736061,1.03403969275,1.3169230487,1.0340555466,1.43376212726,1.03416555538,2.244504365,8.96e-05,1.033861,0.000703041,0.000135689590764
86,1.03295138168,1.03282774358,1.49624828061,1.03285226286,1.68262429928,1.03285450072,1.69963476335,1.03285346239,1.69174216918,1.03295138158,2.43604962246,9.6e-05,1.0326309,0.000612577,0.000131558101287
87,1.03181882324,1.03171046009,0.277795134615,1.03173715541,0.486632392971,1.03174825552,0.573468477767,1.03173279408,0.452513763611,1.03181882319,1.12552234437,0.0001024,1.03167495,0.000649265,0.000127828338834
88,1.02976773081,1.02968821031,-0.414852778099,1.02971775985,-0.171332999613,1.02974228922,0.0308151655769,1.02970428127,-0.282410935008,1.02976773083,0.240484724416,0.0001152,1.02973855,0.000561617,0.000121343510365
89,1.02795975984,1.02790628865,-1.05249824893,1.02793713582,-0.786294317225,1.02797059361,-0.497561357209,1.02791675737,-0.962155611506,1.0279597599,-0.591050226837,0.000128,1.02802825,0.000511396,0.000115877957447
90,1.02635413551,1.02632364797,-0.475772752266,1.02635494982,-0.194260557431,1.02639383478,0.155450116151,1.02632920999,-0.425750970863,1.02635413562,-0.201579648074,0.0001408,1.02637655,0.000495789,0.000111191793076
91,1.02491871797,1.02490822911,-0.00859704736387,1.02493926977,0.281185204533,1.02498118403,0.672478728288,1.02490951669,0.00342326755618,1.0249187181,0.0893270043716,0.0001536,1.02490915,0.000473658,0.000107117186899
92,1.02362783139,1.02363455761,-2.82318727689,1.02366718953,-2.50800282915,1.02370808029,-2.1130480592,1.02363214445,-2.8464954599,1.02362783155,-2.88814954702,0.0001664,1.02392685,0.000593982,0.000103532767774
93,1.02246071677,1.02248214148,-0.36431620116,1.02251140372,-0.0727095766101,1.02255468514,0.358602326797,1.02247653171,-0.420219229536,1.02246071693,-0.57781480699,0.0001792,1.0225187,0.000446221,0.000100348320322
94,1.0214004087,1.02143433863,-1.64583831657,1.0214623878,-1.35814048201,1.02150478428,-0.923283451715,1.02142592716,-1.73211410292,1.02140040888,-1.99384977812,0.000192,1.0215948,0.000395624,9.74952181607e-05
95,1.02043290671,1.02047726118,-0.641473687411,1.02050399553,-0.359822934119,1.02054498742,0.0720333865957,1.02046654094,-0.75441314184,1.02043290689,-1.10875032981,0.0002048,1.02053815,0.000513068,9.49202155478e-05
96,1.0187315697,1.01879191122,-1.22548583244,1.01881587137,-0.960571044484,1.01885284493,-0.551773951884,1.01877744332,-1.38544974102,1.01873156989,-1.89264507037,0.0002304,1.01890275,0.000303957,9.04447704323e-05
97,1.01728384671,1.01735494636,-1.18839554905,1.01737609393,-0.944407373098,1.01740836153,-0.572122650472,1.0173377385,-1.38692977028,1.0172838469,-2.00869665913,0.000256,1.01745795,0.000393647,8.66745389565e-05
98,1.0160370556,1.01611490591,-0.598538542469,1.01613341956,-0.376667752337,1.01616083886,-0.0480701478425,1.01609581257,-0.827356369518,1.01603705579,-1.53150515178,0.0002816,1.01616485,0.000394807,8.34433970014e-05
99,1.01495215889,1.01503386076,-2.7201438014,1.01504986541,-2.52166156503,1.01507258396,-2.23991655387,1.01501344514,-2.97332891157,1.01495215907,-3.73336778064,0.0003072,1.0152532,0.000338344,8.06351641083e-05
100,1.01399961501,1.0140829379,-0.969887765631,1.01409665543,-0.794395137486,1.01411497635,-0.560009945222,1.01406171231,-1.24143333084,1.01399961518,-2.03585882496,0.0003328,1.01415875,0.00027644,7.81658466044e-05
