,Gfit,NRfit,NRres,NTRfit,NTRres,NTfit,NTres,Nfit,Nres,Tfit,Tres,delta_t,g(t),std_err,std_err_fit
7,1.25015927123,1.25312815221,0.32281305611,1.26224061674,0.937338126534,1.26159389704,0.893724828822,1.2524479979,0.276946312015,1.25015926021,0.122599078072,1e-07,1.2483413,0.051157769,0.0148284982235
8,1.25012246522,1.25308776085,0.890834807974,1.26214853988,1.53498974781,1.26151205798,1.48974064947,1.25240855653,0.842549842392,1.2501224542,0.680025080262,1.13e-07,1.2405571,0.071382691,0.0140661785587
9,1.25008849995,1.25305047743,-1.7214177998,1.26206377808,-1.05164473538,1.26143666941,-1.09824471124,1.25237216058,-1.77182157915,1.25008848894,-1.94151951018,1.25e-07,1.27621605,0.052816844,0.0134572745353
10,1.25005171453,1.25301010872,-0.988252778039,1.26197220307,-0.292363503015,1.261355166,-0.340275133722,1.25233274406,-1.04084721715,1.25005170353,-1.21796521611,1.38e-07,1.26573745,0.044983185,0.0128786489678
11,1.25001776827,1.25297285817,-1.40165993581,1.26188790257,-0.683002047473,1.26128008622,-0.731999119234,1.25229637104,-1.45619111344,1.25001775727,-1.63987390182,1.5e-07,1.27036065,0.061490751,0.0124051567086
12,1.24998100344,1.25293251663,-2.00371181686,1.26179682509,-1.26168368768,1.26119891619,-1.31173432074,1.25225697934,-2.06025906423,1.24998099244,-2.25078070872,1.63e-07,1.276869,0.053546431,0.0119460805123
13,1.24994707616,1.25289529312,0.0109844892711,1.26171298108,0.773503020634,1.26112414312,0.722582771046,1.25222062922,-0.0473559597084,1.24994706517,-0.243964292518,1.75e-07,1.25276825,0.059631139,0.0115639252098
14,1.2499103319,1.25285498099,0.854251505936,1.26162239716,1.63790230337,1.26104330426,1.58614182913,1.25218126232,0.794034916736,1.2499103209,0.591053661401,1.88e-07,1.24329765,0.051922192,0.0111879366226
15,1.2498764236,1.25281778748,-1.29430941788,1.26153900683,-0.492055323728,1.26096883585,-0.544504525662,1.25214493509,-1.35620236065,1.24987641261,-1.56488045363,2e-07,1.2668881,0.066580402,0.0108709181921
16,1.24980581054,1.25274035527,-3.57069623295,1.2613659697,-2.73219119197,1.26081416013,-2.78583305996,1.25206928858,-3.63592931292,1.24980579955,-3.85596496772,2.25e-07,1.2894718,0.03804283,0.0102869192997
17,1.24973523695,1.25266291126,-1.34238815192,1.26119386242,-0.470628807659,1.26066011175,-0.525171505627,1.25199368966,-1.41077233417,1.24973522597,-1.6415593058,2.5e-07,1.2657994,0.052690804,0.00978592364561
18,1.2496647028,1.25258556437,-1.89568464091,1.26102267643,-0.993307654475,1.26050668649,-1.04849435598,1.25191813827,-1.96706585039,1.24966469183,-2.20807883773,2.75e-07,1.27031,0.052168994,0.00934989630578
19,1.24959420806,1.25250826475,0.2766596693,1.26085240473,1.20731736369,1.26035388021,1.15171491507,1.25184263438,0.202421368514,1.2495941971,-0.0483559023879,3e-07,1.25002775,0.032336236,0.00896587347683
20,1.24952375269,1.25243101757,-1.34889282694,1.26068303797,-0.392052452372,1.26020168875,-0.447865850686,1.25176717793,-1.42586413288,1.24952374174,-1.6859950155,3.25e-07,1.2640642,0.051311924,0.00862425934271
21,1.24945333666,1.2523538226,0.553928586357,1.26051456956,1.53505224011,1.26005010801,1.47921260403,1.25169176888,0.474335835335,1.24945332571,0.205220225335,3.5e-07,1.24774635,0.048923172,0.00831777526843
22,1.24938295994,1.25227667993,-1.39369347447,1.26034699014,-0.390019131566,1.25989913391,-0.445717205885,1.25161640718,-1.47580656309,1.249382949,-1.7535727595,3.75e-07,1.26348305,0.044573591,0.00804078469065
23,1.2493126225,1.25219958936,-1.63646609585,1.26018029353,-0.611831005268,1.2597487624,-0.667234748208,1.25154109279,-1.72100720104,1.24931261156,-2.00711912275,4e-07,1.26494575,0.033905107,0.00778884434914
24,1.2491720653,1.25204556412,-0.417277780782,1.25984951693,0.644984734354,1.25944981108,0.590577497057,1.25139060573,-0.506426944563,1.24917205438,-0.808412138157,4.5e-07,1.2551111,0.031403055,0.00734655671523
25,1.24903166481,1.25189174514,0.520505791718,1.25952217957,1.61532248328,1.2591532222,1.56238451605,1.25124030734,0.427040280082,1.2490316539,0.110142904721,5e-07,1.248264,0.024677183,0.00696961733063
26,1.24889142076,1.25173814478,-0.58572660301,1.25919822251,0.53720460385,1.25885896438,0.486137767716,1.25109019724,-0.683256057668,1.24889140986,-1.01422857085,5.5e-07,1.25562935,0.026138535,0.00664341385493
27,1.24875133289,1.25158477722,0.709883055679,1.2588775902,1.85699882418,1.25856700667,1.80814602406,1.25094027507,0.608509960938,1.248751322,0.26420165493,6e-07,1.24707165,0.027463984,0.00635753778751
28,1.24861140094,1.25143163851,-1.45693430056,1.25856021984,-0.289143231098,1.25827731856,-0.335487475275,1.25079054046,-1.56195445571,1.24861139007,-1.91893792234,6.5e-07,1.26032525,0.024455274,0.00610434542649
29,1.24847162465,1.25127851194,-1.23790555615,1.25824606216,-0.052557618347,1.25798986997,-0.0961419564943,1.25064099305,-1.34635938295,1.2484716138,-1.71542199905,7e-07,1.258555,0.027509153,0.00587807910205
30,1.24833200377,1.25112573072,-2.43523770506,1.25793506024,-1.23520615835,1.25770463125,-1.27581534065,1.25049163246,-2.54698342387,1.24833199292,-2.92758307932,7.5e-07,1.264944,0.021686858,0.0056743076546
31,1.24819253802,1.25097314183,-1.51953538487,1.25762716122,-0.307408893904,1.25742157314,-0.344859649457,1.25034245834,-1.63441984888,1.24819252719,-2.02606000697,8e-07,1.2593147,0.031485377,0.00548955745069
32,1.24791407093,1.25066856476,-1.76300265248,1.25702046128,-0.533580403828,1.2568618839,-0.564273281571,1.25004466804,-1.88375517063,1.24791406013,-2.29613738273,9e-07,1.25977725,0.021725287,0.00516658539811
33,1.24763622131,1.250364785,-1.79749169713,1.25642555275,-0.558750497911,1.25631057649,-0.582250062219,1.24974761926,-1.92362811002,1.24763621054,-2.35517096599,1e-06,1.25915935,0.020080471,0.00489269765594
34,1.24735898712,1.25006181865,-0.641035245972,1.25584204121,0.60024261868,1.25576743143,0.584220541979,1.2494513091,-0.772135192526,1.24735897637,-1.22145319988,1.1e-06,1.2530469,0.019346263,0.00465668568511
35,1.24708236631,1.24975964097,-1.27563739507,1.25526957416,-0.0376185447073,1.25523223543,-0.0460081003796,1.24915573472,-1.41132369759,1.24708235559,-1.87718670025,1.2e-06,1.255437,0.01950961,0.00445061986295
36,1.24680635685,1.24945825473,-1.97231965217,1.25470769989,-0.742566038087,1.25470478113,-0.743249794964,1.24886089326,-2.11225494461,1.24680634615,-2.59355876589,1.3e-06,1.2578775,0.018628272,0.00426871139159
37,1.24653095672,1.24915765599,-3.16599875442,1.25415614903,-1.94881579781,1.25418486698,-1.94182271636,1.24856678188,-3.30987760309,1.24653094604,-3.80562217072,1.4e-06,1.2621592,0.016521397,0.00410662258529
38,1.24625616389,1.24885784117,-0.691203116273,1.25361455185,0.50967842236,1.25367229704,0.524256747235,1.24827339778,-0.838746912976,1.24625615324,-1.34801955245,1.5e-06,1.2515957,0.02347372,0.00396103064383
39,1.24598197637,1.2485588059,0.0253929052471,1.25308257825,1.20674221291,1.25316688088,1.22875712789,1.24798073813,-0.125559928019,1.24598196575,-0.647522331676,1.6e-06,1.24846155,0.015262305,0.0038293416748
40,1.24543540926,1.2479630611,-0.841594528672,1.25204623212,0.29267462537,1.25217677452,0.328938007167,1.24739758111,-0.998674356263,1.24543539869,-1.54374910259,1.8e-06,1.25099265,0.011558616,0.0035998409964
41,1.24489123951,1.24737039259,-1.73112209416,1.251044736,-0.65230824321,1.25121312803,-0.602867358588,1.24681728867,-1.89351154085,1.244891229,-2.45901394371,2e-06,1.25326645,0.010674102,0.00340592660167
42,1.24434945139,1.24678077278,-1.39643708663,1.25007580828,-0.37924053331,1.25027459963,-0.317872812823,1.24623983892,-1.56342032759,1.24434944092,-2.14699409922,2.2e-06,1.2513043,0.013639095,0.0032393470851
43,1.2438100293,1.24619417469,-2.24173619896,1.2491373727,-1.29056142505,1.24935992136,-1.21863916637,1.24566521018,-2.41267904029,1.24381001888,-3.01223128549,2.4e-06,1.25313075,0.009724038,0.00309429464052
44,1.24327295776,1.24561057203,-0.278284638022,1.248227484,0.603861414438,1.24846789491,0.684902034605,1.245093381,-0.45261998352,1.2432729474,-1.06627378923,2.6e-06,1.2464361,0.0126817,0.00296654821311
45,1.24273822147,1.24502993867,-0.268170141009,1.2473443313,0.54306153331,1.24759738777,0.631761240272,1.24452433016,-0.445386931627,1.24273821115,-1.07144575106,2.8e-06,1.245795,0.013689416,0.00285295718064
46,1.24220580522,1.24445224959,-0.32820015115,1.2464862285,0.411134363717,1.24674732957,0.506041676919,1.24395803665,-0.507835052711,1.24220579495,-1.14475528132,3e-06,1.24535515,0.015180241,0.00275111642123
47,1.24167569394,1.24387748028,1.26931864476,1.2456516252,1.93650865492,1.24591670862,2.03619577239,1.24339447968,1.08768782327,1.24167568372,0.44131841061,3.2e-06,1.24050215,0.013656181,0.00265915423788
48,1.24062232672,1.24273660079,0.187231390917,1.24404705019,0.711578301347,1.24431000572,0.816792776366,1.24227549331,0.00273816509966,1.2406223166,-0.658735377481,3.6e-06,1.24226865,0.006813136,0.00249923331175
49,1.23957800188,1.24160711155,0.393472653623,1.24252013173,0.77962420531,1.24277023965,0.88540272441,1.24116720897,0.207430550096,1.23957799186,-0.464699432653,4e-06,1.24067675,0.010959245,0.00236444906998
50,1.23854260351,1.24048882562,-1.4319781606,1.24106171089,-1.17723230668,1.24129111916,-1.07522364234,1.24006946789,-1.61844300214,1.23854259358,-2.29738281459,4.4e-06,1.2437092,0.00968936,0.0022489096664
51,1.23751601766,1.23938156921,-1.99303159089,1.23966385634,-1.86163568632,1.23986702036,-1.76707409922,1.2389821145,-2.17894872456,1.23751600783,-2.86134010949,4.8e-06,1.24366355,0.008872597,0.00214848355608
52,1.23649813233,1.2382851932,0.597098367888,1.23831968223,0.613846203821,1.23849291468,0.697932373709,1.23790499636,0.412559741176,1.23649812259,-0.270329801088,5.2e-06,1.23705505,0.011045102,0.00206017765244
53,1.23548883739,1.23719952679,0.572173325843,1.23702320859,0.483210157324,1.23716430469,0.55440737498,1.23683796409,0.389735615494,1.23548882774,-0.291039803931,5.6e-06,1.2360656,0.012039978,0.00198176419702
54,1.23448802457,1.23612439963,-0.191710835317,1.23576923952,-0.377500818806,1.23587716679,-0.321040118786,1.23578087127,-0.371415824678,1.23448801501,-1.04775618569,6e-06,1.23649085,0.011338929,0.001911546804
55,1.23349558742,1.2350593108,-0.457065745149,1.23455325892,-0.730865191728,1.23462790019,-0.690479442859,1.23473357437,-0.633302888205,1.23349557795,-1.30313888289,6.4e-06,1.23590405,0.006686922,0.0018482082598
56,1.23153542313,1.23295996534,1.2035360346,1.2322200617,0.777874393305,1.23223042351,0.783835580452,1.23266780831,1.0354645186,1.23153541384,0.383994182566,7.2e-06,1.23086795,0.006629141,0.00173821340568
57,1.22960752767,1.23090014784,0.890094523546,1.22999791682,0.341850480483,1.22994991335,0.312680593891,1.23063957292,0.731760508566,1.22960751855,0.10462028509,8e-06,1.22943535,0.008532722,0.00164565169443
58,1.22771111088,1.22887868155,-0.926023565454,1.22786731235,-1.57167774982,1.22776872742,-1.63461471558,1.22864781714,-1.07340074259,1.22771110193,-1.6714030337,8.8e-06,1.2303292,0.006252342,0.00156640739559
59,1.22584540818,1.2268944409,1.04368837792,1.22581338831,0.321840069194,1.22567266518,0.227874423363,1.22669152976,0.908205132407,1.22584539939,0.343214961911,9.6e-06,1.2253314,0.008607764,0.00149760193546
60,1.22400967955,1.22494634484,1.26331866104,1.22382478041,0.48291980888,1.2236502699,0.36149201486,1.22476973757,1.14043930709,1.22400967093,0.611570209701,1.04e-05,1.22313075,0.007623038,0.0014371545781
61,1.22220320857,1.22303336003,0.581162616813,1.22189275559,-0.243252361051,1.22169227344,-0.388159704704,1.2228815035,0.471408932139,1.2222032001,-0.018864856234,1.12e-05,1.2222293,0.007173455,0.00138351961414
62,1.22042530144,1.22115449031,0.534533042118,1.22001056023,-0.322001262701,1.21979115426,-0.48628606392,1.22102592498,0.438274306011,1.22042529313,-0.0114613351566,1.2e-05,1.2204406,0.008142603,0.0013355220088
63,1.21867528617,1.21930878214,1.50216430722,1.2181729341,0.623202662981,1.21794078578,0.44355616707,1.2192021323,1.41964114126,1.21867527801,1.01193830261,1.28e-05,1.2173676,0.005290998,0.00129225072881
64,1.21525634685,1.21571321198,1.23193165413,1.21461571212,0.330246860956,1.21437314592,0.130957617985,1.21564658104,1.17719539162,1.21525633899,0.856577585795,1.44e-05,1.21421375,0.005552922,0.00121715651187
65,1.21194141853,1.21223972071,0.210321405294,1.21119706618,-0.693177102467,1.21095893284,-0.899529893674,1.21220849426,0.183268879557,1.21194141095,-0.0481703085298,1.6e-05,1.211997,0.005040028,0.00115401074172
66,1.20872582703,1.20888188676,0.670220851563,1.20790113598,-0.221380284019,1.2076771199,-0.425034849978,1.20888195409,0.670288255348,1.20872581972,0.52834542155,1.76e-05,1.20814465,0.00485157,0.00109998061667
67,1.20560517413,1.20563272359,0.959622890011,1.20471681475,0.0898925238718,1.20451274564,-0.103889078923,1.20566144262,0.986899955221,1.20560516708,0.933461371905,1.92e-05,1.20462215,0.005367506,0.00105308812316
68,1.20257531747,1.20248976937,1.20264582015,1.20163581836,0.358747304481,1.20145479564,0.179854392356,1.20254180811,1.25407773762,1.20257531067,1.28718612514,2.08e-05,1.2012728,0.003938338,0.0010119054621
69,1.19963235221,1.19944478197,-0.003048003853,1.19865158373,-0.816268331809,1.19849485208,-0.976957231211,1.19951823462,0.0722642583074,1.19963234565,0.189256429003,2.24e-05,1.19944775,0.004930437,0.000975373216938
70,1.19677259426,1.19649397535,-0.878424296162,1.19575863842,-1.65846335484,1.19562623041,-1.79892146382,1.19658621465,-0.780572415738,1.19677258794,-0.582868067219,2.4e-05,1.19732205,0.00492986,0.000942686841615
71,1.19399256492,1.19363285331,0.480276325476,1.19295223605,-0.265010765936,1.19284342526,-0.384161043548,1.19374152446,0.599277949176,1.19399255882,0.874166262308,2.56e-05,1.19319425,0.004676338,0.000913223097
72,1.18865872042,1.18816311216,1.61415585526,1.18758251875,0.940692983258,1.18751712028,0.864833239686,1.1882985253,1.77123342226,1.18865871475,2.18903952318,2.88e-05,1.18677155,0.002971574,0.000862097155866
73,1.18360658778,1.18300500324,1.67999767461,1.18251260885,1.07886614321,1.18248468369,1.0447740235,1.18316032429,1.86962235447,1.1836065825,2.4144317391,3.2e-05,1.1816289,0.003585983,0.000819108887297
74,1.17881442903,1.17813161068,0.541474206683,1.17771696262,0.0114563809306,1.17772051434,0.0159963334415,1.1783013189,0.758404062958,1.17881442412,1.41427577537,3.52e-05,1.177708,0.003720085,0.000782325579439
75,1.17426268664,1.17351911797,-0.257507071533,1.17317304583,-0.718690022537,1.17320266155,-0.679223377225,1.17369874983,-0.0181239177798,1.17426268207,0.733386069429,3.84e-05,1.17371235,0.003020235,0.000750398857471
76,1.16993371678,1.16914636537,0.203659770344,1.16886086965,-0.191568062534,1.16891183923,-0.121007865588,1.16933231168,0.461076870905,1.16993371253,1.29363144172,4.16e-05,1.16899925,0.004172515,0.000722356077493
77,1.16581156087,1.16499448242,0.702722954336,1.16476257696,0.370230634715,1.16483087719,0.468155483902,1.16518382652,0.974193486935,1.16581155693,1.87419644722,4.48e-05,1.16450435,0.003165484,0.000697475938142
78,1.16188174904,1.1610465796,1.2726096143,1.16086215121,0.999467288408,1.16094437152,1.12123710169,1.16123696873,1.55457905453,1.16188174538,2.50950534169,4.8e-05,1.1601873,0.004363045,0.000675210907246
79,1.15813113051,1.15728748773,1.18576474078,1.15714517527,0.968538298203,1.15723843406,1.11088836681,1.15747703195,1.47508378615,1.15813112711,2.47349353016,5.12e-05,1.15651065,0.003764945,0.000655136991891
80,1.15112060306,1.15028241962,0.133035032694,1.15021073638,0.0174697687998,1.15031915478,0.192255486271,1.1504660302,0.429039330962,1.15112060014,1.48429817388,5.76e-05,1.1501999,0.002146234,0.000620293252289
81,1.14469602735,1.14388487139,-2.05535337233,1.14386904488,-2.08213588035,1.14398564473,-1.88483745987,1.14405869608,-1.76122736699,1.14469602487,-0.682804268891,6.4e-05,1.14509955,0.003331908,0.000590982138805
82,1.13878691713,1.13801699677,-0.232910091048,1.13804540759,-0.182707608218,1.13816522184,0.0290194938525,1.1381787175,0.0528680488791,1.13878691503,1.12763090481,7.04e-05,1.1381488,0.002612994,0.000565889983102
83,1.13333365551,1.13261396439,0.937173101964,1.13267740335,1.05376376763,1.13279690737,1.27339970645,1.1327623071,1.20980801511,1.13333365377,2.25988371222,7.68e-05,1.13210405,0.001732804,0.000544100461618
84,1.12828547768,1.12762131218,-0.0468342571006,1.12771242805,0.126731518206,1.12782913811,0.349056449565,1.12775570806,0.209177074552,1.12828547626,1.21835037893,8.32e-05,1.1276459,0.00240561,0.000524952649398
85,1.12359888669,1.12299292373,2.04678158176,1.12310581186,2.26901719552,1.123218,2.48987893381,1.12311327756,2.28371471452,1.12359888555,3.23971795991,8.96e-05,1.12195325,0.002286771,0.000507956423481
86,1.11923639773,1.11868946464,-0.815000638958,1.11881935775,-0.551391002266,1.11892584789,-0.335272562882,1.11879599676,-0.598801411751,1.11923639685,0.294976930287,9.6e-05,1.11909105,0.001974139,0.000492739725991
87,1.11516553413,1.11467716551,-0.625727132244,1.11482019521,-0.327140012298,1.1149202158,-0.11833505927,1.11477029986,-0.431302536475,1.11516553349,0.393795012375,0.0001024,1.1149769,0.00244194,0.000479014426412
88,1.1077891128,1.10741319928,-0.333824290378,1.10757362985,0.0186298490897,1.10765950241,0.207288035786,1.10748126942,-0.184281887781,1.10778911258,0.49203579952,0.0001152,1.10756515,0.001395485,0.000455175372151
89,1.10128276645,1.10101007567,-0.285614407479,1.10117938692,0.103508115414,1.10125067196,0.267342153023,1.10105571193,-0.18073346706,1.10128276659,0.341105079408,0.000128,1.10113435,0.00174201,0.000435105193797
90,1.09550123265,1.09532102344,-0.0501893595964,1.09549347141,0.362449269502,1.09555054529,0.49901885105,1.09534689826,0.0117208244705,1.09550123309,0.381021860326,0.0001408,1.095342,0.001243981,0.000417910648621
91,1.09032987947,1.09023124731,-0.775000472241,1.09040294911,-0.348912888583,1.0904466027,-0.24058284951,1.09023987921,-0.753584529104,1.09032988018,-0.530239577938,0.0001536,1.09054355,0.001752298,0.000402968453862
92,1.08567703627,1.08564959036,-0.117251598718,1.08581792993,0.314573735718,1.08584914298,0.394642329919,1.0856432643,-0.133483432304,1.08567703721,-0.0468482341174,0.0001664,1.0856953,0.001769731,0.000389828879193
93,1.08146851879,1.08150268953,-1.13407275519,1.08166592624,-0.702414220798,1.08168574289,-0.650011170249,1.08148344013,-1.18497965008,1.08146851992,-1.22443456061,0.0001792,1.08193155,0.001819263,0.000378158286823
94,1.07764364948,1.07773080299,-0.812464118289,1.07788778878,-0.385531520742,1.0778972636,-0.359763972501,1.07770042015,-0.895096248937,1.0776436508,-1.04948526289,0.000192,1.07802955,0.001818362,0.00036770330742
95,1.07415231742,1.07428476035,0.632659591135,1.07443482783,1.05152624689,1.07443492076,1.05178561187,1.07424481104,0.521149597684,1.07415231889,0.26298463209,0.0002048,1.0740581,0.001605945,0.000358267646898
96,1.06800995886,1.06821341933,-0.0461579150474,1.06834862503,0.34933254615,1.06833270932,0.302777199294,1.06815824927,-0.207539393848,1.06800996059,-0.6413016091,0.0002304,1.0682292,0.001710546,0.000341866302748
97,1.06278027063,1.06303373237,0.289542811458,1.06315387257,0.65577243261,1.063125131,0.568157572717,1.06296750897,0.0876678666982,1.06278027258,-0.483097261583,0.000256,1.06293875,0.001043069,0.000328044550664
98,1.05827420379,1.05856160244,0.59173638549,1.05866721102,0.925735854382,1.05862832602,0.802757093274,1.05848753111,0.357475271336,1.0582742059,-0.317192850618,0.0002816,1.0583745,0.001351949,0.000316192809854
99,1.05435154443,1.05466068345,-1.62190279772,1.05475264045,-1.32127762949,1.05470582212,-1.47433602527,1.05458122065,-1.88168292649,1.05435154669,-2.63253260948,0.0003072,1.0551568,0.001417111,0.000305885409128
100,1.0509061016,1.05122776573,-2.33793555789,1.05130711852,-2.07058780437,1.05125413439,-2.24909672709,1.05114478773,-2.61749682522,1.05090610398,-3.42164676149,0.0003328,1.0519217,0.001138197,0.000296814982596
101,1.047855978,1.04818323918,0.135544737579,1.04825102366,0.370294093994,1.04819333039,0.170492876918,1.04809817233,-0.159055005443,1.04785598047,-0.997804997104,0.0003584,1.0481441,0.001510781,0.000288753349005
